Diff Between Pulses ;  ACC
0.6350105833333333;0.6350105833333333;0
0.540009;1.1750195833333332;1
0.5300088333333333;1.7050284166666665;2
0.5300088333333335;2.23503725;3
0.530008833333333;2.765046083333333;4
0.5200086666666666;3.2850547499999996;5
0.5150085833333335;3.800063333333333;6
0.5050084166666666;4.30507175;7
0.4900081666666667;4.795079916666666;8
0.4850080833333328;5.280087999999999;9
0.4850080833333337;5.765096083333333;10
0.48000799999999977;6.245104083333333;11
0.4900081666666667;6.735112249999999;12
0.5050084166666666;7.240120666666666;13
0.5200086666666666;7.7601293333333325;14
0.5550092500000003;8.315138583333333;15
0.5700094999999994;8.885148083333332;16
0.6050100833333332;9.490158166666665;17
0.635010583333333;10.125168749999998;18
0.640010666666667;10.765179416666665;19
0.6450107500000009;11.410190166666666;20
0.6250104166666652;12.035200583333332;21
0.5950099166666671;12.630210499999999;22
0.5750095833333333;13.205220083333332;23
0.5600093333333334;13.765229416666665;24
0.5450090833333334;14.310238499999999;25
0.5350089166666674;14.845247416666666;26
0.5250087499999996;15.370256166666666;27
0.5100084999999996;15.880264666666665;28
0.5050084166666657;16.38527308333333;29
0.5000083333333336;16.885281416666665;30
0.4950082500000015;17.380289666666666;31
0.49500824999999793;17.875297916666664;32
0.4950082500000015;18.370306166666666;33
0.5050084166666657;18.87531458333333;34
0.5050084166666657;19.380322999999997;35
0.5100085000000014;19.8903315;36
0.5250087500000014;20.41534025;37
0.5400089999999977;20.955349249999998;38
0.5300088333333335;21.48535808333333;39
0.5350089166666656;22.020366999999997;40
0.5300088333333335;22.55037583333333;41
0.5250087500000014;23.07538458333333;42
0.5150085833333335;23.590393166666665;43
0.5050084166666657;24.09540158333333;44
0.5000083333333336;24.595409916666664;45
0.4950082500000015;25.090418166666666;46
0.49500824999999793;25.585426416666664;47
0.4850080833333337;26.070434499999998;48
0.48000800000000154;26.5504425;49
0.4900081666666658;27.040450666666665;50
0.4850080833333337;27.52545875;51
0.4900081666666658;28.015466916666664;52
0.4950082500000015;28.510475166666666;53
0.5100084999999979;29.020483666666664;54
0.5350089166666656;29.55549258333333;55
0.5450090833333334;30.100501666666663;56
0.5600093333333334;30.660510999999996;57
0.5600093333333334;31.22052033333333;58
0.5600093333333334;31.780529666666663;59
0.5550092500000012;32.335538916666664;60
0.5350089166666692;32.87054783333333;61
0.5250087499999978;33.39555658333333;62
0.5150085833333335;33.910565166666665;63
0.5000083333333336;34.4105735;64
0.49000816666666225;34.90058166666666;65
0.49000816666666935;35.39058983333333;66
0.4850080833333337;35.87559791666666;67
0.4850080833333337;36.360606;68
0.49000816666666935;36.85061416666667;69
0.5050084166666622;37.35562258333333;70
0.5200086666666692;37.87563125;71
0.5300088333333335;38.40564008333333;72
0.5300088333333335;38.935648916666665;73
0.550009166666662;39.48565808333333;74
0.565009416666669;40.050667499999996;75
0.5750095833333333;40.62567708333333;76
0.5850097499999976;41.21068683333333;77
0.5750095833333333;41.78569641666666;78
0.5600093333333334;42.34570574999999;79
0.5400090000000048;42.88571475;80
0.5250087499999978;43.410723499999996;81
0.5150085833333335;43.92573208333333;82
0.5050084166666693;44.4307405;83
0.5050084166666622;44.93574891666666;84
0.49500825000000503;45.430757166666666;85
0.49000816666666225;45.92076533333333;86
0.49500824999999793;46.415773583333326;87
0.49500825000000503;46.91078183333333;88
0.49500824999999793;47.40579008333333;89
0.5000083333333336;47.90579841666666;90
0.5000083333333336;48.405806749999996;91
0.5100084999999979;48.915815249999994;92
0.5250087500000049;49.440824;93
0.5450090833333334;49.98583308333333;94
0.5450090833333334;50.530842166666666;95
0.5650094166666619;51.09585158333333;96
0.5700095000000047;51.66586108333333;97
0.5650094166666619;52.230870499999995;98
0.565009416666669;52.795879916666664;99
0.5600093333333334;53.35588925;100
0.5400089999999977;53.895898249999995;101
0.5250087499999978;54.42090699999999;102
0.5200086666666692;54.94091566666666;103
0.5100084999999979;55.45092416666666;104
0.5000083333333336;55.95093249999999;105
0.49500825000000503;56.44594075;106
0.49000816666666225;56.93594891666666;107
0.49000816666666935;57.42595708333333;108
0.49000816666666225;57.91596524999999;109
0.5000083333333336;58.415973583333326;110
0.510008500000005;58.92598208333333;111
0.5350089166666621;59.46099099999999;112
0.5400090000000048;60.001;113
0.5600093333333334;60.56100933333333;114
0.5700094999999976;61.13101883333333;115
0.5750095833333333;61.70602841666666;116
0.5600093333333334;62.266037749999995;117
0.5500091666666691;62.816046916666664;118
0.5150085833333335;63.3310555;119
0.5100084999999979;63.841063999999996;120
0.49500825000000503;64.33607225;121
0.49000816666665514;64.82608041666666;122
0.47000783333334084;65.29608825;123
0.47000783333332663;65.76609608333332;124
0.4550075833333409;66.22110366666666;125
0.4550075833333267;66.67611124999999;126
0.4500074999999981;67.12611874999999;127
0.44500741666666954;67.57112616666666;128
0.4350072499999982;68.00613341666666;129
0.4350072499999982;68.44114066666666;130
0.4350072500000124;68.87614791666667;131
0.42000699999999824;69.29615491666667;132
0.4100068333333269;69.70616174999999;133
0.4100068333333411;70.11616858333333;134
0.4100068333333269;70.52617541666666;135
0.4050067499999983;70.93118216666666;136
0.40000666666666973;71.33118883333333;137
0.39000649999999837;71.72119533333333;138
0.39000649999999837;72.11120183333333;139
0.3850064166666698;72.49620825;140
0.37000616666666986;72.86621441666666;141
0.37500624999999843;73.24122066666666;142
0.37000616666666986;73.61122683333333;143
0.3650060833333413;73.97623291666667;144
0.3550059166666699;74.33123883333334;145
0.3600060000000127;74.69124483333336;146
0.35000583333334134;75.0412506666667;147
0.3550059166666699;75.39625658333337;148
0.34000566666667;75.73626225000004;149
0.35000583333334134;76.08626808333338;150
0.3350055833333272;76.4212736666667;151
0.3300054999999986;76.7512791666667;152
0.3350055833333414;77.08628475000005;153
0.34000566666665577;77.4262904166667;154
0.34000566666665577;77.76629608333336;155
0.3350055833333414;78.1013016666667;156
0.3300054999999986;78.4313071666667;157
0.3350055833333272;78.76631275000003;158
0.3350055833333272;79.10131833333335;159
0.3300054999999986;79.43132383333335;160
0.3350055833333414;79.7663294166667;161
0.34000566666667;80.10633508333336;162
0.34000566666665577;80.44634075000002;163
0.3350055833333414;80.78134633333336;164
0.3300054999999986;81.11135183333336;165
0.3350055833333414;81.4463574166667;166
0.32500541666667004;81.77136283333337;167
0.32500541666667004;82.09636825000004;168
0.3300054999999986;82.42637375000004;169
0.32500541666665583;82.7513791666667;170
0.3300054999999986;83.0813846666667;171
0.3300054999999986;83.41139016666669;172
0.3300054999999986;83.74139566666669;173
0.32000533333332726;84.06140100000002;174
0.3300054999999986;84.39140650000002;175
0.32500541666665583;84.71641191666667;176
0.32500541666667004;85.04141733333334;177
0.32000533333334147;85.36142266666668;178
0.32000533333334147;85.68142800000003;179
0.32000533333334147;86.00143333333337;180
0.32500541666667004;86.32643875000004;181
0.32000533333334147;86.64644408333338;182
0.32000533333334147;86.96644941666672;183
0.32000533333334147;87.28645475000006;184
0.32000533333331305;87.60646008333337;185
0.32500541666667004;87.93146550000004;186
0.32000533333334147;88.25147083333339;187
0.31500524999998447;88.56647608333337;188
0.3250054166666416;88.89148150000001;189
0.3150052500000129;89.20648675000002;190
0.32000533333334147;89.52649208333337;191
0.31500524999998447;89.84149733333335;192
0.3150052500000129;90.15650258333336;193
0.3250054166666416;90.481508;194
0.32000533333334147;90.80151333333335;195
0.32500541666667004;91.12651875000002;196
0.3150052500000129;91.44152400000003;197
0.32500541666667004;91.7665294166667;198
0.32000533333334147;92.08653475000004;199
0.3150052500000129;92.40154000000005;200
0.32000533333331305;92.72154533333337;201
0.32000533333331305;93.04155066666668;202
0.32000533333334147;93.36155600000002;203
0.3150052500000129;93.67656125000003;204
0.3150052500000129;93.99156650000005;205
0.32000533333334147;94.31157183333339;206
0.32500541666667004;94.63657725000006;207
0.32000533333334147;94.9565825833334;208
0.3100051666666843;95.26658775000008;209
0.32000533333334147;95.58659308333343;210
0.3300054999999986;95.91659858333342;211
0.32500541666667004;96.2416040000001;212
0.3250054166666416;96.56660941666674;213
0.32500541666667004;96.8916148333334;214
0.3350055833333272;97.22662041666673;215
0.32500541666667004;97.5516258333334;216
0.3300054999999986;97.8816313333334;217
0.3350055833333272;98.21663691666673;218
0.3350055833333272;98.55164250000006;219
0.3400056666666842;98.89164816666674;220
0.3300054999999986;99.22165366666674;221
0.34000566666665577;99.5616593333334;222
0.3400056666666842;99.90166500000008;223
0.3350055833333272;100.2366705833334;224
0.3400056666666842;100.57667625000009;225
0.3350055833333272;100.91168183333342;226
0.3400056666666842;101.2516875000001;227
0.34500575000001277;101.59669325000011;228
0.34500575000001277;101.94169900000013;229
0.34500574999998435;102.28670475000011;230
0.34000566666665577;102.62671041666677;231
0.3500058333333129;102.97671625000008;232
0.3500058333333129;103.3267220833334;233
0.3500058333333129;103.6767279166667;234
0.35000583333334134;104.02673375000005;235
0.35000583333334134;104.37673958333339;236
0.3550059166666699;104.73174550000006;237
0.36500608333332707;105.09675158333339;238
0.3550059166666699;105.45175750000006;239
0.3600059999999985;105.81176350000005;240
0.3600059999999985;106.17176950000005;241
0.3600059999999985;106.53177550000005;242
0.36500608333332707;106.89678158333338;243
0.36500608333332707;107.2617876666667;244
0.3650060833333555;107.62679375000006;245
0.37000616666668407;107.99679991666675;246
0.37000616666665564;108.3668060833334;247
0.37500625000001264;108.74181233333341;248
0.3800063333333128;109.12181866666673;249
0.37500625000001264;109.49682491666674;250
0.37000616666665564;109.8668310833334;251
0.37000616666665564;110.23683725000005;252
0.36500608333332707;110.60184333333338;253
0.37000616666668407;110.97184950000006;254
0.37000616666665564;111.34185566666672;255
0.37500625000001264;111.71686191666673;256
0.3750062499999842;112.09186816666671;257
0.3850064166666698;112.47687458333338;258
0.3800063333333128;112.8568809166667;259
0.37500625000001264;113.23188716666671;260
0.37500625000001264;113.60689341666672;261
0.37500625000001264;113.98189966666673;262
0.37500625000001264;114.35690591666675;263
0.37500625000001264;114.73191216666676;264
0.3750062499999558;115.10691841666672;265
0.37500625000001264;115.48192466666673;266
0.3850064166666698;115.8669310833334;267
0.38000633333336964;116.24693741666677;268
0.3800063333333128;116.62694375000008;269
0.3800063333333128;117.0069500833334;270
0.3850064166666698;117.39195650000006;271
0.3900065000000268;117.78196300000009;272
0.39000649999996995;118.17196950000006;273
0.3850064166666698;118.55697591666673;274
0.39000649999996995;118.9469824166667;275
0.3850064166666698;119.33198883333337;276
0.3850064166666698;119.71699525000004;277
0.3800063333333128;120.09700158333335;278
0.3850064166666698;120.48200800000002;279
0.3850064166666698;120.86701441666669;280
0.3850064166666698;121.25202083333336;281
0.39000649999996995;121.64202733333333;282
0.3900065000000268;122.03203383333336;283
0.3850064166666698;122.41704025000003;284
0.3850064166666698;122.8020466666667;285
0.39000649999996995;123.19205316666667;286
0.3900065000000268;123.5820596666667;287
0.39000649999996995;123.97206616666666;288
0.3850064166666698;124.35707258333333;289
0.3850064166666698;124.742079;290
0.3900065000000268;125.13208550000003;291
0.38500641666661295;125.51709191666664;292
0.3900065000000268;125.90709841666667;293
0.3850064166666698;126.29210483333334;294
0.3850064166666698;126.67711125000001;295
0.39500658333332694;127.07211783333334;296
0.39500658333332694;127.46712441666666;297
0.39500658333332694;127.86213099999999;298
0.39500658333332694;128.2571375833333;299
0.40000666666668394;128.65714425;300
0.39500658333332694;129.05215083333331;301
0.40000666666668394;129.4521575;302
0.40000666666668394;129.85216416666668;303
0.39500658333332694;130.24717075;304
0.39500658333332694;130.64217733333334;305
0.39500658333332694;131.03718391666666;306
0.39500658333332694;131.4321905;307
0.39500658333332694;131.82719708333332;308
0.39500658333332694;132.22220366666664;309
0.40000666666668394;132.62221033333333;310
0.39500658333332694;133.01721691666665;311
0.3900065000000268;133.40722341666668;312
0.4000066666666271;133.8072300833333;313
0.40000666666668394;134.20723675;314
0.39500658333332694;134.60224333333332;315
0.39500658333332694;134.99724991666665;316
0.39500658333332694;135.39225649999997;317
0.40500675000004094;135.79726325000001;318
0.4000066666666271;136.19726991666664;319
0.40000666666668394;136.59727658333333;320
0.40000666666668394;136.99728325;321
0.4050067499999841;137.40229;322
0.4050067499999841;137.80729674999998;323
0.4050067499999841;138.21230349999996;324
0.40500675000004094;138.61731025;325
0.4050067499999841;139.022317;326
0.4050067499999841;139.42732374999997;327
0.40000666666668394;139.82733041666665;328
0.4050067499999841;140.23233716666664;329
0.39500658333332694;140.62734374999997;330
0.40000666666668394;141.02735041666665;331
0.39500658333332694;141.42235699999998;332
0.40000666666668394;141.82236366666666;333
0.40000666666668394;142.22237033333334;334
0.39500658333332694;142.61737691666667;335
0.39500658333332694;143.0123835;336
0.40000666666668394;143.41239016666668;337
0.4000066666666271;143.8123968333333;338
0.40000666666668394;144.2124035;339
0.4050067499999841;144.61741024999998;340
0.40000666666668394;145.01741691666666;341
0.4050067499999841;145.42242366666665;342
0.4100068333333411;145.8324305;343
0.4100068333333411;146.24243733333333;344
0.4050067499999841;146.6474440833333;345
0.4050067499999841;147.0524508333333;346
0.40500675000004094;147.45745758333334;347
0.4050067499999841;147.86246433333332;348
0.4050067499999841;148.2674710833333;349
0.40500675000004094;148.67247783333335;350
0.39500658333332694;149.06748441666667;351
0.4000066666666271;149.4674910833333;352
0.40500675000004094;149.87249783333334;353
0.4000066666666271;150.27250449999997;354
0.40000666666668394;150.67251116666665;355
0.40000666666668394;151.07251783333334;356
0.4000066666666271;151.47252449999996;357
0.40500675000004094;151.87753125;358
0.4100068333333411;152.28753808333335;359
0.4050067499999841;152.69254483333333;360
0.4050067499999841;153.0975515833333;361
0.4100068333333411;153.50755841666665;362
